%time,field.data
1536693065394961528,43.498
1536693065617250840,43.669
1536693065850992824,43.823
1536693066082243544,43.95
1536693066302618552,44.079
1536693066517772984,44.291
1536693066796897688,44.637
1536693067055984376,44.989
1536693067268767256,45.311
1536693067547626328,45.906
1536693067806881752,46.611
1536693068012731544,47.293
1536693068277445976,48.13
1536693068517319736,48.765
1536693068784646616,49.526
1536693069004377528,50.064
1536693069281260024,50.58
1536693069509994296,50.902
1536693069765794584,51.122
1536693070010192504,51.272
1536693070326567224,51.389
1536693070492155096,51.364
1536693070718249976,51.269
1536693070980524696,51.171
1536693071238840312,51.075
1536693071482282104,51.021
1536693071726037112,51.06
1536693071971637688,51.165
1536693072209858680,51.23
1536693072473094648,51.259
1536693072741552536,51.305
1536693072937214616,51.317
1536693073212312664,51.256
1536693073414413208,51.158
1536693073662071736,50.982
1536693073877995096,50.798
1536693074079727544,50.509
1536693074325084280,50.162
1536693074587232952,49.766
1536693074814221080,49.459
1536693075068056856,49.294
1536693075319190744,49.258
1536693075579027672,49.301
1536693075829307128,49.444
1536693076084415640,49.646
1536693076277336632,49.742
1536693076525246648,49.794
1536693076768982904,49.801
1536693077018631704,49.695
1536693077265397304,49.469
1536693077507869016,49.178
1536693077726375352,48.921
1536693078004155384,48.644
1536693078215862328,48.438
1536693078505165080,48.109
1536693078726041368,47.873
1536693078978521688,47.527
1536693079213260248,47.297
1536693079467398936,47.117
1536693079719037368,47.04
1536693079978187320,47.001
1536693080229667544,46.912
1536693080481061720,46.87
1536693080715596856,46.907
1536693081018308728,47.092
1536693081205402648,47.241
1536693081464168728,47.506
1536693081735743000,47.825
1536693081982229688,48.234
1536693082233314136,48.656
1536693082448862232,49.144
1536693082717359736,49.631
1536693082954785688,49.983
1536693083197210456,50.242
1536693083452045048,50.444
1536693083685924376,50.543
1536693083944271032,50.591
1536693084179562872,50.562
1536693084426360504,50.507
1536693084667961624,50.397
1536693084921630040,50.233
1536693085174859640,50.041
1536693085447545624,49.894
1536693085703530520,49.74
1536693085928930008,49.65
1536693086214187256,49.47
1536693086409900664,49.342
1536693086675965464,49.174
1536693086930074744,49.053
1536693087167954776,48.966
1536693087384232760,48.947
1536693087614915672,48.994
1536693087882878904,49.086
1536693088119719064,49.186
1536693088385109944,49.235
1536693088591691960,49.191
1536693088808296504,49.097
1536693089067147320,48.997
1536693089351086008,48.914
1536693089607352376,48.885
1536693089832779928,48.857
1536693090076259928,48.856
1536693090346484632,48.903
1536693090538403416,48.981
1536693090810538232,49.134
1536693091030689112,49.324
1536693091267105816,49.581
1536693091524566648,49.748
1536693091785489208,49.806
1536693092031889816,49.825
1536693092267601880,49.863
1536693092570138232,49.865
1536693092777814168,49.837
1536693093036292632,49.804
1536693093261110648,49.793
1536693093506427000,49.816
1536693093749449976,49.874
1536693094010955640,49.979
1536693094234500504,50.084
1536693094488758424,50.157
1536693094715165880,50.236
1536693095009819736,50.37
1536693095211433592,50.452
1536693095522477944,50.592
1536693095712418744,50.659
1536693095984738072,50.806
1536693096218399192,50.979
1536693096471865688,51.133
1536693096713962744,51.256
1536693096970758296,51.37
1536693097231494712,51.466
1536693097518204088,51.629
1536693097726090936,51.702
1536693098037103736,51.722
1536693098214703928,51.693
1536693098524815992,51.587
1536693098732211352,51.512
1536693098954452088,51.398
1536693099186100856,51.307
1536693099413813176,51.238
1536693099671271832,51.131
1536693099934651640,51.037
1536693100180731960,51.001
1536693100434152824,51.02
1536693100657600408,51.06
1536693100924141816,51.066
1536693101179399864,51.022
1536693101417927320,50.954
1536693101664650200,50.851
1536693101914620216,50.712
1536693102139236856,50.604
1536693102373673176,50.546
1536693102621892920,50.519
1536693102895232504,50.465
1536693103170665432,50.368
1536693103382215800,50.251
1536693103622978296,50.162
1536693103894310744,50.071
1536693104120707192,49.897
1536693104385179256,49.68
1536693104614006136,49.463
1536693104877012280,49.32
1536693105119309912,49.204
1536693105433688504,49.073
1536693105616540408,49.026
1536693105881568920,49.061
1536693106115716344,49.228
1536693106359110808,49.463
1536693106573920984,49.738
1536693106832838136,50.029
1536693107105345432,50.392
1536693107323980472,50.672
1536693107519582552,50.876
1536693107737732088,51.061
1536693107968631544,51.179
1536693108232862360,51.224
1536693108469920920,51.189
1536693108718177016,51.086
1536693108956903928,50.94
1536693109163065624,50.763
1536693109439126232,50.487
1536693109630023736,50.306
1536693109913195448,50.111
1536693110124729176,49.936
1536693110392741560,49.718
1536693110635617336,49.492
1536693110917372888,49.232
1536693111124535576,49.047
1536693111376290008,48.87
1536693111613594200,48.784
1536693111876301720,48.786
1536693112126813016,48.895
1536693112368957368,49.03
1536693112593254136,49.133
1536693112836058520,49.179
1536693113077666104,49.177
1536693113317438200,49.119
1536693113542893624,49.049
1536693113793626584,48.996
1536693114043680152,48.937
1536693114290197240,48.835
1536693114557051736,48.703
1536693114802200408,48.587
1536693115055549656,48.44
1536693115249018456,48.328
1536693115519710680,48.101
1536693115736438136,47.882
1536693115998379768,47.599
1536693116253385848,47.264
1536693116493136600,46.938
1536693116741876344,46.567
1536693116998419832,46.157
1536693117237805720,45.852
1536693117517467288,45.497
1536693117755798744,45.221
1536693117993144376,45.028
1536693118225247992,44.917
1536693118487371480,44.891
1536693118736418936,44.972
1536693118978627224,45.243
1536693119204826712,45.646
1536693119471015224,46.374
1536693119708376536,47.141
1536693119984610040,48.184
1536693120184200920,49.16
1536693120471390104,50.516
1536693120734191832,51.746
1536693120934546520,52.698
1536693121220693656,53.76
1536693121418429752,54.39
1536693121675083192,55.024
1536693121927743832,55.42
1536693122178866008,55.586
1536693122409665400,55.528
1536693122664517688,55.317
1536693122904689176,55.027
1536693123138080312,54.551
1536693123402087704,54.015
1536693123643173336,53.421
1536693123915168056,52.686
1536693124127788600,52.127
1536693124398868376,51.525
1536693124631933464,51.053
1536693124888230392,50.658
1536693125121596376,50.396
1536693125381283416,50.221
1536693125605952472,50.134
1536693125846903544,50.116
1536693126073170872,50.154
1536693126325455064,50.244
1536693126573698552,50.381
1536693126830211064,50.588
1536693127071642584,50.773
1536693127323550712,50.947
1536693127580918840,51.094
1536693127811581656,51.1
1536693128053883192,50.968
1536693128295638872,50.695
1536693128524900376,50.428
1536693128733108824,50.193
1536693128969740792,49.899
1536693129213490488,49.63
1536693129482992760,49.382
1536693129727669560,49.256
1536693129969293624,49.234
1536693130187820664,49.229
1536693130446639192,49.134
1536693130686200824,49.048
1536693130964967448,49.075
1536693131171637784,49.208
1536693131421718968,49.404
1536693131674822584,49.522
1536693131925551672,49.649
1536693132174356472,49.794
1536693132408038904,50.014
1536693132676530808,50.336
1536693132908300856,50.655
1536693133134823768,51.068
1536693133376511288,51.6
1536693133625404440,52.057
1536693133879154104,52.506
1536693134108258136,52.964
1536693134401551928,53.409
1536693134617393464,53.64
1536693134850840152,53.691
1536693135133741912,53.571
1536693135368037208,53.373
1536693135579652184,53.068
1536693135811565144,52.697
1536693136073403224,52.264
1536693136311540888,51.74
1536693136614808728,50.983
1536693136812434904,50.357
1536693137084776696,49.516
1536693137311917912,48.743
1536693137539573688,47.924
1536693137835574584,46.715
1536693138033913048,45.861
1536693138267910072,44.866
1536693138520091352,43.747
1536693138793986808,42.617
1536693139050102392,41.41
1536693139282696280,40.233
1536693139515506328,39.141
1536693139785179416,37.736
1536693140007839192,36.53
1536693140291194360,34.744
1536693140524081432,33.159
1536693140794412984,30.673
1536693141017393912,28.905
1536693141235887224,26.74
