%time,field.data
1536693419528202200,72.413
1536693419786108216,72.314
1536693420014102168,72.125
1536693420270618744,71.856
1536693420509026744,71.532
1536693420745356632,71.078
1536693421002088536,70.507
1536693421233908792,69.852
1536693421506725336,68.989
1536693421755600120,67.93
1536693422004400536,66.874
1536693422269598904,65.363
1536693422510463960,63.943
1536693422802295736,62.06
1536693422989320920,60.903
1536693423249478232,59.228
1536693423490338424,57.685
1536693423744698232,56.023
1536693423982802776,54.446
1536693424242604440,52.853
1536693424491112984,51.012
1536693424724060984,49.63
1536693424982035288,48.154
1536693425246348088,46.934
1536693425453314264,46.205
1536693425684876536,45.618
1536693425940966360,45.38
1536693426180742424,45.508
1536693426480637496,45.978
1536693426690679672,46.538
1536693426932518488,47.309
1536693427188303864,48.08
1536693427461918232,48.932
1536693427661033368,49.655
1536693427948981016,50.501
1536693428178908504,51.058
1536693428392762104,51.508
1536693428635424120,51.919
1536693428886163256,52.151
1536693429125495256,52.269
1536693429340936440,52.27
1536693429594847480,52.156
1536693429802547032,51.984
1536693430043563352,51.699
1536693430305842840,51.344
1536693430572122008,50.935
1536693430806025112,50.602
1536693430996331128,50.298
1536693431233644632,49.952
1536693431454818008,49.695
1536693431728170584,49.502
1536693431970821272,49.481
1536693432198511512,49.592
1536693432417217176,49.797
1536693432677569400,50.119
1536693432920380056,50.533
1536693433167496568,51.01
1536693433386991032,51.41
1536693433640451960,51.845
1536693433884322232,52.139
1536693434126287384,52.409
1536693434338810744,52.542
1536693434570552024,52.631
1536693434820786616,52.651
1536693435042669400,52.564
1536693435298739192,52.422
1536693435532842072,52.263
1536693435787328376,52.101
1536693436019588728,52.007
1536693436260878136,52.037
1536693436491876664,52.168
1536693436758071864,52.464
1536693436958197336,52.725
1536693437247089624,53.174
1536693437444730552,53.48
1536693437724201016,53.84
1536693437937993496,54.06
1536693438192808856,54.18
1536693438444870584,54.152
1536693438692921400,53.998
1536693438950876344,53.715
1536693439182106680,53.379
1536693439450145848,52.969
1536693439682807448,52.601
1536693439906541176,52.221
1536693440138939736,51.883
1536693440398529016,51.571
1536693440623744408,51.296
1536693440862572952,51.059
1536693441116348984,50.873
1536693441397333560,50.707
1536693441621792952,50.611
1536693441854295096,50.572
1536693442109555480,50.529
1536693442357520856,50.444
1536693442624620312,50.36
1536693442871566136,50.328
1536693443121170520,50.337
1536693443337632632,50.282
1536693443594303928,50.178
1536693443830155736,50.06
1536693444098073080,49.874
1536693444361366904,49.692
1536693444553515608,49.588
1536693444774567256,49.504
1536693445044437592,49.477
1536693445293017752,49.496
1536693445532968728,49.546
1536693445749992600,49.606
1536693445993133080,49.695
1536693446221972024,49.787
1536693446479970488,49.866
1536693446746818104,49.923
1536693446928640120,49.939
1536693447194698680,49.983
1536693447440676472,50.028
1536693447688387128,50.029
1536693447920680536,50.004
1536693448133467928,49.979
1536693448382093720,49.938
1536693448639051000,49.891
1536693448891125176,49.812
1536693449153071256,49.711
1536693449376151416,49.649
1536693449641684280,49.627
1536693449907820792,49.631
1536693450113780760,49.645
1536693450344287960,49.635
1536693450623012312,49.587
1536693450839249624,49.531
1536693451050742968,49.508
1536693451321872088,49.513
1536693451568115608,49.563
1536693451785705624,49.619
1536693452039726968,49.687
1536693452341740920,49.72
1536693452545335096,49.657
1536693452790903640,49.546
1536693453016467384,49.414
1536693453269368152,49.351
1536693453526033944,49.363
1536693453773858584,49.446
1536693453999134456,49.641
1536693454239461144,49.96
1536693454440665400,50.327
1536693454687023448,50.775
1536693454917771032,51.321
1536693455142318616,51.759
1536693455405605112,52.212
1536693455643008088,52.515
1536693455858161688,52.794
1536693456104205048,53.088
1536693456337604760,53.303
1536693456550596312,53.43
1536693456753405528,53.41
1536693457008556056,53.198
1536693457250790232,52.931
1536693457520523864,52.51
1536693457736786360,52.129
1536693457928359768,51.693
1536693458191786968,51.119
1536693458480997176,50.558
1536693458698018232,50.15
1536693458938531224,49.726
1536693459219029720,49.283
1536693459442270776,48.981
1536693459694917144,48.816
1536693460001934552,48.859
1536693460146073784,48.938
1536693460388243416,49.108
1536693460652451832,49.345
1536693460851278232,49.513
1536693461075743960,49.636
1536693461340134328,49.675
1536693461602532184,49.647
1536693461845988024,49.541
1536693462115314552,49.336
1536693462293744472,49.145
1536693462535382360,48.86
1536693462801029240,48.483
1536693463050774936,48.147
1536693463275211032,47.849
1536693463537891704,47.528
1536693463772017432,47.334
1536693463989183832,47.229
1536693464248230296,47.194
1536693464531798776,47.241
1536693464744391352,47.35
1536693465023866680,47.612
1536693465240995224,47.928
1536693465498679000,48.401
1536693465743369720,48.944
1536693465980277048,49.484
1536693466200433624,50.139
1536693466409419512,50.702
1536693466662691096,51.396
1536693466942570520,52.016
1536693467184739800,52.444
1536693467406073848,52.725
1536693467669414744,53.013
1536693467859233976,53.161
1536693468118045912,53.351
1536693468346095000,53.458
1536693468564798040,53.527
1536693468792384376,53.543
1536693469000805400,53.503
1536693469232433848,53.38
1536693469514431896,53.089
1536693469770256984,52.707
1536693470023346744,52.248
1536693470229327384,51.88
1536693470471430968,51.45
1536693470687159960,51.027
1536693470938754008,50.568
1536693471226373176,50.132
1536693471459863384,49.879
1536693471673821624,49.701
1536693471922760824,49.569
1536693472184379800,49.501
1536693472383120984,49.448
1536693472644273240,49.409
1536693472894264344,49.366
1536693473171399768,49.346
1536693473399390936,49.324
1536693473652118456,49.273
1536693473939374456,49.164
1536693474105563672,49.098
1536693474346030872,48.971
1536693474582037176,48.869
1536693474850841048,48.825
1536693475082111896,48.867
1536693475325391640,48.962
1536693475558232792,49.082
1536693475812540440,49.198
1536693476049051000,49.138
1536693476298024856,48.809
1536693476560785048,48.358
1536693476781437880,48.008
1536693476996754904,47.592
1536693477198555416,47.25
1536693477441496088,46.838
1536693477705284568,46.46
1536693477991218360,46.093
1536693478228979256,45.899
1536693478422950392,45.75
1536693478630571576,45.658
1536693478899866584,45.673
1536693479126596024,45.791
1536693479410121304,45.995
1536693479653911160,46.16
1536693479878955288,46.28
1536693480105937272,46.417
1536693480356843352,46.534
1536693480607718264,46.652
1536693480823350136,46.725
1536693481088575832,46.792
1536693481345370488,46.849
1536693481573920760,46.887
1536693481794379928,46.943
1536693482039442168,47.056
1536693482303255352,47.243
1536693482567105400,47.617
1536693482783433336,48.016
1536693483007939800,48.508
1536693483248025656,49.195
1536693483482046328,49.988
1536693483763824792,51.017
1536693484002064760,51.857
1536693484238012184,52.567
1536693484474539608,53.093
1536693484727327352,53.506
1536693484941637688,53.707
1536693485163650456,53.807
1536693485385244440,53.83
1536693485632703832,53.801
1536693485901148376,53.775
1536693486134376696,53.776
1536693486382937400,53.796
1536693486577426456,53.797
1536693486834722936,53.701
1536693487083695128,53.438
1536693487350141368,53.009
1536693487604990712,52.417
1536693487817421816,51.839
1536693488050399640,51.031
1536693488301724568,50.1
1536693488539841624,49.217
1536693488774374648,48.449
1536693489008211864,47.719
1536693489309015192,46.995
1536693489478360952,46.693
1536693489735707192,46.484
