%time,field.data
1536703529070362073,284.34
1536703529311227991,285.37
1536703529579281766,286.48
1536703529836148891,290.33
1536703530082630946,295.57
1536703530323457557,300.72
1536703530569014535,306.53
1536703530827523758,312.45
1536703531071632186,319.59
1536703531345525974,325.68
1536703531581942553,329.31
1536703531819319720,331.63
1536703532054702335,333.55
1536703532276335689,334.53
1536703532524520045,334.83
1536703532768270829,334.68
1536703533019847082,333.9
1536703533270218484,332.49
1536703533505670677,331.67
1536703533777868250,332.11
1536703533971246245,330.71
1536703534211498776,329.21
1536703534470740894,328.27
1536703534718491283,329.09
1536703534984062613,329.83
1536703535210720025,329.51
1536703535477672785,330.12
1536703535725624855,330.86
1536703535958211325,332.53
1536703536213860824,336.55
1536703536455191037,342.54
1536703536689781231,349.09
1536703536949913418,353.69
1536703537171948251,359.95
1536703537412385767,6.16
1536703537688568197,14.52
1536703537905780057,20.9
1536703538171597577,28.71
1536703538409242405,34.62
1536703538609182905,39.85
1536703538833851846,45.94
1536703539080611999,51.94
1536703539331006340,59.85
1536703539573524526,65.43
1536703539816411537,72.32
1536703540063096033,79.01
1536703540287858359,84.84
1536703540551386619,91.64
1536703540778702780,97.85
1536703541087640126,107.65
1536703541247074800,112.72
1536703541505135772,120.45
1536703541761145747,127.05
1536703541997825092,134.03
1536703542182127008,139.32
1536703542423018317,145.67
1536703542657938680,151.53
1536703542897308165,157.55
1536703543131191808,161.51
1536703543410774988,164.96
1536703543631541722,165.7
1536703543883814954,164.34
1536703544146949133,161.55
1536703544369122483,159.69
1536703544621645811,158.18
1536703544864606782,155.9
1536703545082614745,152.77
1536703545325298880,149.08
1536703545562281792,145.09
1536703545824958877,140.81
1536703546073838588,136.86
1536703546322870801,133.39
1536703546571191285,129.58
1536703546780544377,126.22
1536703547055633663,121.9
1536703547280089975,118.8
1536703547492858506,116.92
1536703547724189551,115.52
1536703547966911169,115.1
1536703548223254693,115.09
1536703548422215895,114.98
1536703548666990738,114.79
1536703548931016047,114.57
1536703549197132728,114.58
1536703549415957687,115.57
1536703549702365544,117.45
1536703549924911671,118.21
1536703550179877989,118.48
1536703550408217998,118.03
1536703550679316029,117.04
1536703550918207682,116.39
1536703551187849481,116.37
1536703551439765835,116.34
1536703551707062338,115.97
1536703551935786648,116.3
1536703552135875380,116.59
1536703552408721799,116.18
1536703552637362167,115.54
1536703552872848530,114.87
1536703553118004887,114.3
1536703553370326844,113.83
1536703553598011863,112.99
1536703553852292081,112.12
1536703554133976181,110.07
1536703554342902557,107.54
1536703554612922360,103.42
1536703554838908206,99.94
1536703555082145547,97.52
1536703555333120185,94.49
1536703555577719569,90.89
1536703555828356423,86.88
1536703556078192490,80.13
1536703556325116775,73.85
1536703556570285897,67.27
1536703556825533392,60.61
1536703557071238148,52.68
1536703557317052367,45.18
1536703557580059490,37.54
1536703557855839103,32.18
1536703558078712027,28.63
1536703558336010017,24.69
1536703558576007393,21.27
1536703558819274202,18.2
1536703559097686415,14.9
1536703559286725890,13.93
1536703559516987886,12.97
1536703559769921290,11.14
1536703559976131781,9.13
1536703560246376604,7.48
1536703560509473807,6.65
1536703560692291139,5.89
1536703560957270253,4.41
1536703561194874952,2.51
1536703561464873529,1.5
1536703561706708213,1.61
1536703561933012903,1.87
1536703562187078159,1.81
1536703562445047711,1.18
1536703562680701722,359.92
1536703562939535703,359.3
1536703563099843273,359.08
1536703563393892244,357.75
1536703563586813300,355.23
1536703563840542232,353.74
1536703564085435323,355.71
1536703564323999237,357.07
1536703564570299011,355.96
1536703564825259490,353.82
1536703565077750901,352.41
1536703565330091076,350.58
1536703565550365529,348.63
1536703565799868519,345.52
1536703566036946215,343.77
1536703566269571971,342.32
1536703566517131955,339.66
1536703566764421833,336.01
1536703567052632562,330.58
1536703567275303426,327.33
1536703567500968463,323.37
1536703567735499448,317.76
1536703567998216847,311.13
1536703568245140699,304.37
1536703568473382887,298.43
1536703568707718859,293.37
1536703568936357070,287.67
1536703569163908516,282.05
1536703569391880206,277.17
1536703569617807589,271.69
1536703569861440210,265.16
1536703570115007933,257.09
1536703570373001569,248.71
1536703570628355840,242.12
1536703570863980566,237.81
1536703571118387782,236.55
1536703571430085233,236.1
1536703571625402116,235.78
1536703571841018546,235.56
1536703572123517861,236.18
1536703572341772432,237.2
1536703572569153902,238.6
1536703572815213195,239.51
1536703573033329272,240.84
1536703573273239766,242.12
1536703573474378202,242.64
1536703573737777993,242.94
1536703573957060309,243.53
1536703574245558154,244.69
1536703574473102869,245.08
1536703574719243935,244.35
1536703574969345584,243.35
1536703575234736162,242.4
1536703575447863658,241.96
1536703575737075779,241.68
1536703575949852114,241.33
1536703576161652147,240.97
1536703576398413439,240.57
1536703576650769132,239.52
1536703576931627703,238.39
1536703577172623327,239.52
1536703577394725742,239.89
1536703577654084404,239.19
1536703577881686887,239.21
1536703578123252699,240.43
1536703578373977596,241.18
1536703578589092226,240.89
1536703578844809010,240.12
1536703579036235245,240.11
1536703579313075991,239.72
1536703579509788790,240.42
1536703579762738044,240.98
1536703579987490465,241.4
1536703580225579984,241.89
1536703580460589092,242.15
1536703580696490917,241.11
1536703580936700355,240.86
1536703581183475144,241.67
1536703581440066315,242.54
1536703581678563592,242.38
1536703581922997631,242.05
1536703582191274132,242.14
1536703582412848618,241.99
1536703582657796685,242.27
1536703582872859192,242.78
1536703583091822279,242.74
1536703583351729358,242.1
1536703583570940147,241.82
1536703583819757303,241.27
1536703584049109172,240.09
1536703584273594010,239.66
1536703584517801342,240.45
1536703584736708963,241.0
1536703584968660255,241.35
1536703585208964246,241.99
1536703585473481380,243.16
1536703585717384104,242.69
1536703585955712811,241.71
1536703586199701478,242.64
1536703586446616446,243.78
1536703586673860951,243.4
1536703586906893579,243.32
1536703587157814306,244.73
1536703587414916873,247.75
1536703587613610952,249.74
1536703587828654097,252.31
1536703588054866808,254.65
1536703588276448325,258.54
1536703588516074388,262.7
1536703588738759559,267.29
1536703588939979782,271.24
1536703589195322151,276.19
1536703589442257383,281.42
1536703589693094317,287.67
1536703589900217983,293.74
1536703590168609134,299.27
1536703590403223777,304.56
1536703590646428815,309.53
1536703590911944477,316.07
1536703591124734402,320.27
1536703591361676985,326.91
1536703591625063984,332.99
1536703591884311590,338.82
1536703592114878156,342.88
1536703592380174607,346.97
1536703592609293299,351.34
1536703592847182093,354.35
1536703593092807378,357.17
1536703593314571033,358.75
1536703593550764627,0.38
1536703593810391441,2.35
1536703594009316774,3.43
1536703594272355630,4.81
1536703594509452652,4.93
1536703594773165764,4.06
1536703595008888481,2.84
1536703595279446163,1.58
1536703595512728227,0.0
1536703595774640508,358.52
1536703596007619411,357.41
1536703596237331182,356.14
1536703596516531504,354.17
1536703596730710003,353.17
1536703596972982220,352.62
1536703597194965268,352.59
1536703597437179047,352.1
1536703597650111169,351.4
1536703597937432671,351.49
1536703598177936500,352.87
1536703598403142155,354.52
1536703598670681292,356.49
1536703598908828054,357.65
1536703599159911856,358.64
1536703599388346293,359.7
1536703599590895220,1.58
1536703599804439699,4.71
1536703600073576229,8.36
1536703600336393925,10.23
1536703600527072498,12.74
1536703600772466374,16.12
1536703601036020883,20.51
1536703601274507586,23.51
1536703601519066051,26.37
1536703601783527252,29.84
1536703602001470721,33.03
1536703602258342877,36.33
1536703602515281494,39.63
1536703602762236281,44.06
1536703603008031542,48.55
1536703603314628098,54.03
1536703603490958190,56.79
1536703603749164547,61.29
1536703603993500892,67.54
1536703604203768682,71.14
1536703604475208355,77.5
1536703604735928022,83.2
1536703604960769040,87.77
1536703605255348357,94.07
1536703605416159475,96.97
1536703605672919548,102.75
1536703605916658869,107.83
1536703606184734769,113.84
1536703606441418932,118.61
1536703606669953228,122.43
1536703606925285135,126.36
1536703607168497450,129.74
1536703607421038632,132.01
1536703607662401548,132.33
1536703607924165842,131.49
1536703608111989307,130.94
1536703608392218152,130.64
1536703608611261554,130.22
1536703608887799350,128.23
1536703609095451017,126.35
1536703609314299698,124.22
1536703609581100979,122.04
1536703609802582782,121.01
1536703610028906614,119.23
1536703610302746764,116.2
