%time,field.data
1532987297289109940,279.07
1532987297524685680,280.43
1532987297800684051,281.32
1532987298029498020,282.33
1532987298279019766,284.75
1532987298543260060,288.95
1532987298800557079,294.6
1532987299049100652,298.93
1532987299300753528,303.16
1532987299553011874,306.65
1532987299782280818,310.3
1532987300026826739,313.38
1532987300293434418,315.48
1532987300531112904,316.24
1532987300746963871,316.92
1532987301040938156,316.52
1532987301250461654,316.19
1532987301508413231,315.91
1532987301750024218,315.78
1532987302010241004,315.32
1532987302236413988,314.56
1532987302479115755,313.79
1532987302754023153,313.39
1532987302981623429,313.19
1532987303230750201,312.64
1532987303436371439,312.15
1532987303688326106,312.03
1532987303887540803,312.26
1532987304169401301,312.67
1532987304420905217,314.41
1532987304654876482,316.67
1532987304901424861,319.11
1532987305177230913,321.96
1532987305384764881,325.21
1532987305699232640,331.74
1532987305907250319,336.69
1532987306179383646,344.76
1532987306406561587,350.79
1532987306681835832,358.95
1532987306911482086,6.06
1532987307162592276,13.66
1532987307384385081,20.7
1532987307594339555,27.45
1532987307875470262,36.07
1532987308122512080,44.31
1532987308345543282,51.32
1532987308575684542,58.95
1532987308816532715,65.95
1532987309059535376,73.78
1532987309300397757,82.25
1532987309574870596,89.89
1532987309797159464,97.63
1532987310022653827,105.17
1532987310289375073,113.5
1532987310498176590,119.15
1532987310771539929,126.22
1532987310994080060,129.65
1532987311230331606,130.99
1532987311463724793,132.02
1532987311716421538,132.79
1532987311984471773,132.71
1532987312223674030,130.77
1532987312424784882,128.82
1532987312681505742,126.59
1532987312973289538,121.77
1532987313238478565,118.07
1532987313421355168,116.13
1532987313683009549,113.38
1532987313923014780,109.28
1532987314175956708,105.56
1532987314441638054,103.4
1532987314682350579,102.27
1532987314893344921,100.78
1532987315120208303,98.89
1532987315362449784,97.07
1532987315585314202,96.32
1532987315832148020,95.09
1532987316108314903,96.01
1532987316362025244,97.32
1532987316578065459,97.98
1532987316840053696,97.56
1532987317073139652,98.57
1532987317370277863,100.68
1532987317583958437,100.94
1532987317838322121,100.2
1532987318104315274,99.39
1532987318364306109,99.65
1532987318593911947,100.45
1532987318831260802,101.05
1532987319092583473,100.9
1532987319338895533,100.2
1532987319586153094,100.37
1532987319818519756,101.99
1532987320083736239,104.08
1532987320291346303,105.69
1532987320617654283,108.89
1532987320804741880,111.76
1532987321109083078,116.91
1532987321307946929,120.31
1532987321567712900,124.98
1532987321780517285,129.11
1532987322021429457,134.03
1532987322281052933,139.73
1532987322552833684,144.81
1532987322771940514,150.28
1532987323042460725,155.22
1532987323283388898,158.96
1532987323507511968,162.91
1532987323771893542,166.25
1532987323939617710,168.72
1532987324204559026,171.15
1532987324427459668,172.92
1532987324688045957,174.32
1532987324912627747,175.19
1532987325139170874,175.81
1532987325380235302,176.59
1532987325600314032,177.48
1532987325912463911,178.29
1532987326074028065,178.29
1532987326346068944,177.63
1532987326590547409,177.54
1532987326834698004,177.81
1532987327075487072,177.98
1532987327317514313,177.6
1532987327542220486,176.94
1532987327807066858,176.44
1532987328045430430,177.64
1532987328305329265,179.54
1532987328542879560,180.25
1532987328818031533,179.85
1532987329058767034,179.04
1532987329317099633,179.06
1532987329561113268,179.65
1532987329808778668,179.86
1532987330042179983,179.56
1532987330293881883,179.84
1532987330526737855,180.09
1532987330792151298,180.17
1532987331032314064,180.83
1532987331355330726,181.82
1532987331536528357,182.91
1532987331766370291,183.68
1532987332039881565,184.05
1532987332243392410,184.33
1532987332504307178,184.77
1532987332747184272,185.3
1532987333017475364,184.82
1532987333235472597,184.32
1532987333473640617,183.41
1532987333745971991,182.81
1532987334003737713,182.49
1532987334224984792,181.49
1532987334494556750,180.96
1532987334682224506,180.87
1532987334943710697,180.8
1532987335203381788,180.6
1532987335456396420,180.31
1532987335703651133,180.16
1532987335958260128,180.16
1532987336177026255,181.15
1532987336426244930,183.44
1532987336671583905,185.93
1532987336933575310,188.51
1532987337201018539,190.26
1532987337417810463,192.35
1532987337644320151,195.1
1532987337870857358,198.04
1532987338112982071,201.47
1532987338327123827,204.44
1532987338563095246,208.07
1532987338800033254,211.88
1532987339100563968,217.33
1532987339309662059,220.73
1532987339547628864,224.96
1532987339802489891,229.36
1532987340007032636,233.34
1532987340264200663,237.83
1532987340512198606,242.05
1532987340752841563,245.99
1532987340986783548,249.75
1532987341204208239,252.7
1532987341484638725,255.94
1532987341721230846,258.25
1532987341940819594,260.34
1532987342184699629,262.01
1532987342443075557,263.22
1532987342690455006,263.81
1532987342960791858,263.78
1532987343202034013,263.15
1532987343414867997,263.06
1532987343715685910,263.45
1532987343913767650,263.71
1532987344124534793,263.36
1532987344378699534,262.31
1532987344612847758,261.15
1532987344863771196,260.41
1532987345111268533,259.44
1532987345358098927,258.71
1532987345615044331,258.59
1532987345823412185,259.28
1532987346052488553,260.67
1532987346295629390,261.9
1532987346561993134,262.88
1532987346827436848,262.98
1532987347069940056,262.92
1532987347344327168,263.71
1532987347568005951,264.83
1532987347845155679,264.33
1532987348072186613,263.88
1532987348341731531,264.1
1532987348577412295,263.85
1532987348797589553,263.24
1532987349037571552,262.99
1532987349289481099,263.18
1532987349552684277,261.92
1532987349802802693,258.69
1532987350030506233,258.07
1532987350311722924,259.91
1532987350544691888,262.13
1532987350782214631,263.33
1532987351040653278,263.34
1532987351285895517,262.93
1532987351553389626,263.59
1532987351786640029,263.94
1532987351990947287,263.58
1532987352256533721,263.6
1532987352480790839,264.2
1532987352749081681,265.26
1532987352993088116,266.1
1532987353223065793,266.99
1532987353514395958,267.63
1532987353760092564,266.91
1532987353933022508,265.65
1532987354181887200,263.52
1532987354445536360,262.51
1532987354699058095,262.21
1532987354939524604,262.28
1532987355186837109,262.28
1532987355447217575,261.43
1532987355691961447,259.46
1532987355890182260,258.23
1532987356218116187,259.75
1532987356399972664,261.79
1532987356689011156,263.4
1532987356911920758,263.68
1532987357176138332,264.1
1532987357429193348,264.59
1532987357691162097,264.79
1532987357867196832,264.79
1532987358151937737,264.57
1532987358381718550,264.58
1532987358613179711,264.7
1532987358858842173,265.98
1532987359069931170,266.94
1532987359345175848,266.43
1532987359587413360,263.25
1532987359874303090,261.97
1532987360086089717,262.33
1532987360330495223,263.23
1532987360584305021,264.54
1532987360837164773,267.12
1532987361147081794,269.68
1532987361317480770,271.8
1532987361578030579,275.29
1532987361812574674,278.75
1532987362053448671,282.67
1532987362276115874,287.16
1532987362555101243,291.62
1532987362781087604,296.48
1532987363043623936,302.14
1532987363280683703,308.12
1532987363543173795,313.69
1532987363784216783,319.48
1532987364066883389,326.13
1532987364277337669,332.04
1532987364577842846,340.21
1532987364797470666,346.73
1532987364995989750,351.87
1532987365253262481,357.13
1532987365518520692,2.07
1532987365741182295,6.61
1532987365986316311,9.24
1532987366233736623,10.22
1532987366482559684,9.92
1532987366735736907,9.58
1532987366992133065,10.45
1532987367216640486,9.9
1532987367450575879,7.42
1532987367718249059,4.02
1532987367995240483,359.74
1532987368193127152,357.17
1532987368458557427,354.92
1532987368658973881,352.67
1532987368896851406,349.85
1532987369187587876,347.52
1532987369409824073,345.85
1532987369676386120,345.26
1532987369913570815,345.73
1532987370156878916,346.0
1532987370419037169,346.03
1532987370661210745,346.76
1532987370881614019,348.65
1532987371144974316,352.13
1532987371380370504,354.65
1532987371642586421,355.39
1532987371870896967,356.81
1532987372155309360,0.16
1532987372416417600,2.43
1532987372635292430,2.53
1532987372868750257,1.4
1532987373119762046,1.25
1532987373366982552,1.52
1532987373604180143,0.52
1532987373860197166,358.93
1532987374093653584,357.59
1532987374273824595,356.84
1532987374547174430,357.35
1532987374794625558,358.39
1532987375078497121,359.65
1532987375286766160,2.72
1532987375543305453,7.47
1532987375807194292,12.11
1532987376022712429,17.27
1532987376265327604,24.27
1532987376494490851,31.77
1532987376736787339,38.72
1532987376993857671,47.23
1532987377186371780,53.41
1532987377428875372,62.76
1532987377714773169,72.35
1532987377925297528,79.53
1532987378183447505,87.34
1532987378425108123,92.26
1532987378675790570,94.67
1532987378918322161,96.75
1532987379181912793,98.97
1532987379411246504,100.3
1532987379666866696,99.65
1532987379892533442,98.37
1532987380150135676,97.65
1532987380372058721,97.36
1532987380624702122,97.56
1532987380870319944,97.51
1532987381071443500,96.07
1532987381347730318,95.27
1532987381590300725,95.51
1532987381842241952,96.19
1532987382073545161,96.17
1532987382357005974,96.2
1532987382605726410,96.67
1532987382842716738,96.54
1532987383057294302,96.46
1532987383338670064,96.89
1532987383561337363,97.96
1532987383842699174,98.97
1532987384050220278,98.82
1532987384276038448,98.63
1532987384546200260,99.45
1532987384780567140,100.01
1532987385043636782,99.78
1532987385274617400,99.93
1532987385562000568,99.72
1532987385791225608,99.15
1532987386040728698,98.93
1532987386287161110,98.63
1532987386546480522,98.7
1532987386794308802,98.29
1532987387039482785,97.57
1532987387284906688,97.65
1532987387550108259,98.19
1532987387771945097,98.73
1532987388016144267,98.15
1532987388232136130,98.91
1532987388473318765,100.56
1532987388695271058,102.46
1532987388939250773,105.13
1532987389191212000,108.75
1532987389441811600,114.52
1532987389685319444,120.07
1532987389986819850,127.28
1532987390180204229,131.9
1532987390394993152,138.29
1532987390660820033,144.69
1532987390871490184,150.35
1532987391145119090,157.78
1532987391399165143,164.55
1532987391634621075,172.31
1532987391871279500,179.0
1532987392154845752,187.21
1532987392373345352,193.33
1532987392626153776,199.82
1532987392884487784,205.4
1532987393145039129,209.26
1532987393413034964,210.91
1532987393636828340,211.26
1532987393873211310,211.31
1532987394183764329,211.12
1532987394384798605,210.96
1532987394664231845,210.32
1532987394873529776,209.09
1532987395180379830,205.53
1532987395394442963,202.57
1532987395640122385,198.74
1532987395881676123,196.23
1532987396138569847,193.84
1532987396399643495,190.57
1532987396635062884,186.21
1532987396874586452,183.53
1532987397137381439,181.95
1532987397383079324,180.46
1532987397627979133,179.5
1532987397884588730,178.84
1532987398160435101,179.31
1532987398431538606,180.8
1532987398662820919,182.37
1532987398855893747,183.53
1532987399118323423,184.25
1532987399348907786,184.84
1532987399597508287,185.83
1532987399841474498,187.06
1532987400080747987,188.29
1532987400381470508,189.06
1532987400568437946,188.71
1532987400860156750,187.29
1532987401085937255,185.86
1532987401309532584,184.82
1532987401524878273,184.06
1532987401785598577,183.58
1532987402038084571,182.07
1532987402289596711,179.99
1532987402539621816,178.91
1532987402819191344,179.63
1532987403042888528,180.9
1532987403270140197,182.88
1532987403537992224,186.47
1532987403781407781,191.48
1532987404009308504,197.37
1532987404276286326,203.6
1532987404496243009,208.56
1532987404738165418,215.24
1532987404988197883,222.8
1532987405260289386,234.07
1532987405503315823,243.22
1532987405744770778,251.4
1532987406013061620,259.38
1532987406236704884,265.57
1532987406526560365,273.82
1532987406698432105,278.5
1532987406981147191,284.87
1532987407211868194,289.86
1532987407448935418,294.03
1532987407673952342,297.75
1532987407926262112,300.14
1532987408172048221,301.36
1532987408439672793,301.83
1532987408683699356,301.0
1532987408947203364,298.08
1532987409165206166,295.33
1532987409438243489,291.91
1532987409673173247,288.5
