%time,field.data
1538769412930175808,53.214
1538769413180454880,52.996
1538769413426975424,53.203
1538769413672323424,53.651
1538769413916574720,54.109
1538769414180140128,54.375
1538769414410328544,54.519
1538769414682689312,54.667
1538769414917829696,54.626
1538769415167616864,54.405
1538769415383880128,54.074
1538769415619499904,53.577
1538769415862200416,52.942
1538769416116098496,52.362
1538769416354135936,51.611
1538769416610511040,50.897
1538769416836319456,50.174
1538769417079102816,49.489
1538769417327199872,48.89
1538769417575869024,48.496
1538769417810529536,48.251
1538769418071309376,48.155
1538769418303595552,48.211
1538769418595896128,48.428
1538769418819947680,48.692
1538769419042285152,48.993
1538769419291952704,49.331
1538769419560284448,49.671
1538769419793182976,49.924
1538769420031337536,50.16
1538769420247968544,50.323
1538769420485986432,50.43
1538769420744511040,50.487
1538769420950443200,50.544
1538769421178358432,50.644
1538769421405571232,50.782
1538769421685400608,50.983
1538769421900412704,51.159
1538769422219778112,51.43
1538769422412085696,51.6
1538769422670411072,51.846
1538769422914457728,51.998
1538769423181040352,52.108
1538769423393119584,52.104
1538769423629719840,51.951
1538769423904335072,51.633
1538769424148900768,51.239
1538769424380404128,50.763
1538769424599859680,50.265
1538769424832216320,49.693
1538769425073571616,49.161
1538769425340851936,48.632
1538769425603669824,48.15
1538769425837777792,47.801
1538769426058774368,47.537
1538769426284083776,47.305
1538769426517584288,47.134
1538769426780634528,47.098
1538769427011231840,47.221
1538769427260427168,47.742
1538769427512274464,48.355
1538769427789799648,48.958
1538769428012023456,49.381
1538769428267961408,49.906
1538769428502037088,50.318
1538769428787889312,50.545
1538769429017108736,50.618
1538769429262729088,50.598
1538769429512468608,50.466
1538769429769544896,50.226
1538769430015514048,49.847
1538769430264497248,49.419
1538769430515663968,48.953
1538769430775665184,48.451
1538769431024542976,48.073
1538769431229064000,47.818
1538769431492781664,47.602
1538769431710270688,47.532
1538769431997326432,47.494
1538769432222931616,47.551
1538769432500872320,47.756
1538769432669872800,47.958
1538769432903069600,48.262
1538769433166356896,48.68
1538769433432698944,49.125
1538769433672989408,49.584
1538769433896264704,49.903
1538769434136050016,50.172
1538769434392363360,50.458
1538769434647883712,50.623
1538769434862470944,50.732
1538769435120367104,50.775
1538769435348705344,50.746
1538769435643367168,50.594
1538769435837576256,50.414
1538769436093568096,50.137
1538769436308952832,49.913
1538769436496767264,49.746
1538769436771413344,49.503
1538769437017374336,49.337
1538769437260777312,49.222
1538769437502078336,49.221
1538769437769119680,49.331
1538769437997401600,49.459
1538769438237247072,49.613
1538769438459193376,49.776
1538769438716792928,49.926
1538769438916972480,50.024
1538769439244139968,50.101
1538769439418738144,50.136
1538769439672998528,50.282
1538769439920866112,50.532
1538769440171226784,50.846
1538769440461870144,51.105
1538769440710720224,51.373
1538769440917667392,51.523
1538769441159414656,51.674
1538769441369486752,51.743
1538769441611865568,51.753
1538769441873712704,51.693
1538769442097573376,51.582
1538769442338490208,51.453
1538769442596507776,51.273
1538769442834730496,51.099
1538769443032208000,50.923
1538769443302950752,50.651
1538769443556224064,50.449
1538769443771856736,50.336
1538769444024339264,50.24
1538769444261361280,50.152
1538769444517983360,50.106
1538769444721563264,50.109
1538769444962213536,50.136
1538769445214819712,50.129
1538769445452678880,50.106
1538769445702573216,50.071
1538769445952631616,50.041
1538769446223204320,49.992
1538769446478434880,49.869
1538769446714376000,49.735
1538769446968346752,49.596
1538769447249296000,49.478
1538769447472767104,49.421
1538769447711962912,49.372
1538769447982244736,49.335
1538769448218171712,49.323
1538769448445830528,49.337
1538769448678571136,49.365
1538769448912744608,49.397
1538769449141233440,49.402
1538769449420679392,49.369
1538769449694668448,49.305
1538769449879273888,49.247
1538769450107919552,49.177
1538769450332869440,49.119
1538769450573170624,49.04
1538769450824062400,48.98
1538769451080080928,48.987
1538769451293838720,49.051
1538769451553292192,49.175
1538769451791052608,49.299
1538769452039610560,49.494
1538769452281308480,49.694
1538769452520948992,49.905
1538769452777572032,50.062
1538769453020138496,50.195
1538769453302169376,50.33
1538769453521717216,50.44
1538769453767062240,50.495
1538769453978649440,50.438
1538769454227194336,50.399
1538769454488995872,50.367
1538769454706418208,50.313
1538769454932796864,50.302
1538769455167855296,50.294
1538769455421889888,50.279
1538769455703767552,50.235
1538769455927774848,50.199
1538769456171938112,50.156
1538769456406082912,50.093
1538769456680234496,50.05
1538769456901879008,50.024
1538769457127413184,49.997
1538769457382021056,49.986
1538769457684844000,50.005
1538769457895794528,49.997
1538769458128962528,49.977
1538769458347503072,49.987
1538769458586437664,50.036
1538769458832077888,50.107
1538769459107809984,50.176
1538769459355369952,50.225
1538769459555903328,50.251
1538769459784552512,50.219
1538769460012844032,50.055
1538769460243429952,49.753
1538769460469991744,49.396
1538769460706833536,48.929
1538769460971000096,48.428
1538769461226176160,47.909
1538769461461257152,47.479
1538769461707685536,47.031
1538769461968109056,46.524
1538769462209389952,46.151
1538769462470260224,45.743
1538769462712600864,45.504
1538769462959031168,45.361
1538769463208761888,45.383
1538769463446787104,45.463
1538769463680099616,45.675
1538769463954435936,46.402
1538769464184956352,47.502
1538769464431586272,48.849
1538769464700261792,50.328
1538769464959729280,51.659
1538769465192943264,52.642
1538769465430219840,53.3
1538769465668273440,53.994
1538769465937050176,54.377
1538769466180365152,54.55
1538769466434475744,54.477
1538769466729944864,54.232
1538769466910275296,53.986
1538769467173157664,53.635
1538769467415511904,53.182
1538769467658839168,52.722
1538769467940670656,52.179
1538769468157847360,51.779
1538769468428564384,51.248
1538769468668352960,50.836
1538769468918205152,50.353
1538769469138077856,49.936
1538769469370926208,49.404
1538769469649218656,48.939
1538769469890818496,48.59
1538769470148666048,48.246
1538769470392231680,48.001
1538769470613064000,47.964
1538769470904082784,48.212
1538769471107870080,48.592
1538769471368030784,49.215
1538769471634434144,49.844
1538769471844951968,50.614
1538769472124394080,51.28
1538769472330051328,51.666
1538769472596127168,51.947
1538769472814839808,52.042
1538769473091664288,52.028
1538769473311800864,51.939
1538769473551302336,51.798
1538769473812774144,51.613
1538769474037291296,51.38
1538769474284347264,51.183
1538769474521896768,51.001
1538769474785032192,50.851
1538769475030934592,50.784
1538769475259054400,50.788
1538769475481613856,50.787
1538769475762812448,50.786
1538769476008801760,50.775
1538769476262532256,50.759
1538769476481889312,50.747
1538769476724641664,50.704
1538769477007181568,50.622
1538769477231864928,50.537
1538769477447535168,50.412
1538769477726061088,50.188
1538769477960616160,49.979
1538769478218928736,49.792
1538769478468163008,49.663
1538769478717364704,49.596
1538769478969048160,49.614
1538769479209186656,49.686
1538769479429527136,49.774
1538769479701198432,49.893
1538769479930694144,49.966
1538769480174125152,49.963
1538769480399135136,49.87
1538769480656067008,49.665
1538769480913922624,49.424
1538769481168205184,49.201
1538769481388832448,48.996
1538769481621626400,48.812
1538769481871972064,48.788
1538769482155083744,48.958
1538769482389588544,49.157
1538769482650831328,49.459
1538769482884247840,49.812
1538769483120235584,50.135
1538769483415772192,50.465
1538769483671097216,50.667
1538769483879089504,50.807
1538769484116567712,50.916
1538769484347552704,51.01
1538769484582565088,51.062
1538769484862436832,51.072
1538769485099009568,51.04
1538769485304088512,50.989
1538769485585536480,50.887
1538769485832280928,50.801
1538769486070131200,50.758
1538769486348321760,50.728
1538769486578507264,50.71
1538769486814652832,50.681
1538769487055380864,50.653
1538769487316653728,50.614
1538769487582308032,50.552
1538769487803342016,50.48
1538769488065389856,50.38
1538769488296337600,50.271
1538769488553879584,50.121
1538769488818842528,49.911
1538769489058651072,49.723
1538769489308392416,49.574
1538769489558838304,49.486
1538769489810281056,49.401
1538769490065084864,49.277
1538769490315114304,49.162
1538769490569787776,49.009
1538769490833775840,48.835
1538769491076205760,48.688
1538769491315243648,48.587
1538769491567830112,48.501
1538769491811544256,48.411
1538769492073022336,48.288
1538769492338584288,48.176
1538769492572482944,48.095
1538769492818107552,48.095
1538769493063274080,48.178
1538769493324206688,48.327
1538769493578812224,48.598
1538769493789930720,48.914
1538769494036610816,49.275
1538769494324073696,49.659
1538769494532752032,49.888
1538769494764814176,50.105
1538769495010301888,50.279
1538769495270743776,50.398
1538769495529223968,50.506
1538769495791327328,50.542
1538769496007117216,50.499
1538769496266649120,50.362
1538769496523081696,50.278
1538769496753080192,50.362
1538769496994393376,50.556
1538769497273164832,50.837
1538769497475801120,51.038
1538769497750105792,51.285
1538769497995588416,51.43
1538769498211476032,51.466
1538769498477033280,51.456
1538769498741290720,51.419
1538769498967899904,51.39
1538769499209753696,51.376
1538769499463881728,51.41
1538769499730745376,51.507
1538769499964692608,51.607
1538769500232626976,51.69
1538769500467085504,51.723
1538769500709045728,51.67
1538769500975873216,51.488
1538769501212864256,51.237
1538769501477524256,50.928
1538769501704929568,50.656
1538769501927225376,50.382
1538769502151415680,50.106
1538769502403201216,49.858
