%time,field.data
1538769412930650688,219.77
1538769413180508064,215.29
1538769413427025984,211.31
1538769413672351776,209.0
1538769413916590368,208.87
1538769414180155232,209.4
1538769414410345280,211.24
1538769414682687552,206.5
1538769414917877216,203.12
1538769415167653664,204.41
1538769415383889664,207.5
1538769415619525216,211.05
1538769415862218688,214.69
1538769416116124384,219.1
1538769416354148928,224.42
1538769416610533600,229.7
1538769416836430496,236.13
1538769417079143648,242.63
1538769417327212352,248.73
1538769417575884544,255.36
1538769417810553728,262.36
1538769418071794464,268.97
1538769418303786912,276.15
1538769418596223680,282.55
1538769418819964448,288.57
1538769419042315840,294.5
1538769419292115744,300.84
1538769419560289664,307.72
1538769419793187264,313.38
1538769420031442592,319.52
1538769420248240416,325.03
1538769420486164704,331.34
1538769420744531968,336.68
1538769420950581152,341.5
1538769421178368064,346.12
1538769421405590368,349.84
1538769421685444480,353.34
1538769421900432576,355.75
1538769422219827456,357.03
1538769422412113344,357.45
1538769422670426304,356.91
1538769422914593504,356.49
1538769423181236032,355.32
1538769423393136736,354.36
1538769423629761728,352.06
1538769423904398976,347.15
1538769424149011136,341.12
1538769424380523968,334.83
1538769424599887520,328.87
1538769424832282464,321.73
1538769425073624608,314.1
1538769425342731808,304.97
1538769425603692288,295.54
1538769425837824832,287.2
1538769426059069248,279.9
1538769426284099808,272.5
1538769426517606272,264.88
1538769426780640704,259.55
1538769427011226080,256.25
1538769427260433376,252.92
1538769427512569216,252.62
1538769427789905696,253.59
1538769428012031840,252.7
1538769428267970528,253.29
1538769428502147616,255.78
1538769428788065024,256.71
1538769429017108256,257.23
1538769429262731136,258.77
1538769429512505056,260.09
1538769429769556736,262.88
1538769430015528960,268.21
1538769430264580032,273.62
1538769430515674592,279.33
1538769430775718112,286.86
1538769431024559072,292.99
1538769431229110464,298.22
1538769431492817696,306.37
1538769431710523264,312.22
1538769431998682464,320.12
1538769432222932576,326.62
1538769432501032992,334.18
1538769432670918560,339.26
1538769432903098912,345.12
1538769433166372192,351.73
1538769433432725376,358.41
1538769433673045440,4.8
1538769433896288672,10.14
1538769434136081824,15.38
1538769434392381664,22.2
1538769434647911200,27.61
1538769434862489632,32.99
1538769435120385312,38.75
1538769435348723744,44.42
1538769435643554336,52.61
1538769435837782528,58.59
1538769436093602880,65.85
1538769436309299744,71.76
1538769436496782944,77.18
1538769436771904416,85.8
1538769437017462848,91.61
1538769437260788032,98.93
1538769437502119072,106.71
1538769437769146208,113.11
1538769437997479456,117.94
1538769438237358400,122.94
1538769438459388416,128.02
1538769438716813600,133.14
1538769438916982816,137.83
1538769439244385024,145.16
1538769439419183936,147.98
1538769439673014112,150.22
1538769439920884544,151.34
1538769440171351424,152.04
1538769440461890624,151.05
1538769440710741696,148.49
1538769440917710272,146.91
1538769441159799840,144.78
1538769441369753952,142.67
1538769441611870336,140.35
1538769441873721760,138.73
1538769442098164480,137.6
1538769442338512256,135.92
1538769442596551008,134.94
1538769442834755104,134.99
1538769443032406016,135.3
1538769443302988704,134.99
1538769443556254464,134.16
1538769443771874048,134.57
1538769444024356384,135.66
1538769444261365696,136.36
1538769444518001568,136.7
1538769444721621568,136.24
1538769444962419840,135.98
1538769445214931968,136.18
1538769445452710688,135.92
1538769445702606976,135.26
1538769445953292608,134.31
1538769446223428128,134.95
1538769446478557376,135.89
1538769446714453568,135.73
1538769446968373920,134.53
1538769447249314432,133.15
1538769447472793344,132.99
1538769447711964064,133.88
1538769447982268416,134.15
1538769448218223328,133.57
1538769448445877952,132.99
1538769448678590016,133.47
1538769448912753280,133.67
1538769449141266208,133.78
1538769449420702464,134.54
1538769449694688192,134.25
1538769449879304832,134.23
1538769450107937440,133.92
1538769450332883360,133.83
1538769450573189632,133.53
1538769450824265376,132.12
1538769451080168640,130.0
1538769451293882016,127.75
1538769451553307872,124.59
1538769451791102624,122.13
1538769452039625152,119.56
1538769452281316960,117.99
1538769452521010720,116.64
1538769452777585408,116.62
1538769453020385152,115.64
1538769453302180544,114.96
1538769453521741920,116.16
1538769453767073312,117.96
1538769453978876096,119.09
1538769454227243936,118.63
1538769454489002048,118.45
1538769454706492032,119.49
1538769454932829760,119.64
1538769455167867776,119.22
1538769455421911040,119.24
1538769455703817824,119.86
1538769455927825312,120.52
1538769456171983552,120.48
1538769456406102016,120.17
1538769456680314848,119.9
1538769456901999456,119.06
1538769457127410848,118.99
1538769457382035840,119.46
1538769457684882272,119.09
1538769457895843456,118.99
1538769458129003840,118.8
1538769458347520768,117.52
1538769458586572032,116.53
1538769458832118112,116.45
1538769459107876928,117.19
1538769459355713728,115.84
1538769459555920064,114.66
1538769459784645664,113.0
1538769460013073632,110.64
1538769460243428096,105.73
1538769460471053792,99.07
1538769460706850720,90.71
1538769460971027360,82.17
1538769461226198368,73.54
1538769461461362144,65.91
1538769461708208160,57.12
1538769461968235488,45.84
1538769462209403648,37.64
1538769462470260128,26.56
1538769462712615360,16.52
1538769462959187040,3.9
1538769463208780480,352.34
1538769463447341120,344.97
1538769463680226688,337.4
1538769463954620288,329.45
1538769464185017568,326.76
1538769464431609600,326.9
1538769464700282560,327.02
1538769464959723616,327.22
1538769465192976480,327.91
1538769465430230336,328.94
1538769465668378080,330.58
1538769465937130016,331.26
1538769466180406272,331.15
1538769466434495584,329.73
1538769466729991264,327.73
1538769466910298240,326.11
1538769467173181184,324.53
1538769467415629312,320.88
1538769467658850656,315.83
1538769467941077984,308.94
1538769468157881024,303.37
1538769468428698272,295.56
1538769468668478112,289.0
1538769468918332064,281.03
1538769469138092352,274.33
1538769469370931840,265.49
1538769469649233472,256.37
1538769469890855680,248.16
1538769470148676288,239.61
1538769470392301120,231.81
1538769470613249760,226.54
1538769470904345952,223.51
1538769471108082784,222.37
1538769471368063200,220.52
1538769471634722880,219.45
1538769471845080032,220.29
1538769472124443520,221.97
1538769472330065600,223.94
1538769472596395200,225.63
1538769472814879296,226.52
1538769473091675744,227.33
1538769473311851904,228.12
1538769473551311328,229.07
1538769473812790080,230.04
1538769474037342560,229.49
1538769474284359040,229.14
1538769474521914016,229.62
1538769474785035904,230.38
1538769475030983616,230.24
1538769475259354560,231.2
1538769475481637184,231.62
1538769475763601472,230.52
1538769476008815072,229.22
1538769476262588512,228.65
1538769476481970912,229.4
1538769476724653152,229.5
1538769477007183584,229.4
1538769477231885440,229.2
1538769477447552832,229.93
1538769477726141664,230.43
1538769477960641792,231.35
1538769478218953248,231.21
1538769478468202752,231.71
1538769478717619872,231.17
1538769478969180896,230.26
1538769479209194848,230.12
1538769479429699968,231.76
1538769479701279424,233.44
1538769479930930784,234.95
1538769480174133760,238.19
1538769480399612096,242.48
1538769480656080352,248.44
1538769480913930336,253.84
1538769481168213408,258.89
1538769481388889536,263.37
1538769481621655168,267.83
1538769481872048768,272.09
1538769482155166080,275.77
1538769482389784128,277.98
1538769482650854944,279.8
1538769482884254944,281.05
1538769483120255008,282.42
1538769483415807136,283.18
1538769483671119296,283.15
1538769483879139200,282.23
1538769484116571328,281.31
1538769484347676832,280.77
1538769484582567552,280.41
1538769484862451296,279.31
1538769485099081248,278.77
1538769485304316256,278.57
1538769485585538432,277.81
1538769485832289056,277.57
1538769486070144992,277.59
1538769486348325824,277.81
1538769486578522304,277.65
1538769486814678496,277.91
1538769487055719680,278.07
1538769487316697376,278.53
1538769487582337408,278.19
1538769487803591072,277.81
1538769488065395360,278.11
1538769488296484128,278.34
1538769488553869376,278.7
1538769488818862272,278.93
1538769489058656032,278.95
1538769489308417408,279.54
1538769489559008256,281.25
1538769489810290144,282.73
1538769490065128576,285.13
1538769490315909216,289.51
1538769490569863904,295.68
1538769490833784160,300.66
1538769491076214496,306.33
1538769491315248928,312.68
1538769491567852800,319.71
1538769491811553568,326.39
1538769492073036896,334.31
1538769492338597312,341.65
1538769492572706080,347.99
1538769492818127072,355.31
1538769493063283200,3.13
1538769493324220544,9.85
1538769493578827456,16.52
1538769493790321600,22.45
1538769494036673888,29.01
1538769494324099264,36.76
1538769494532769472,41.78
1538769494764848032,47.35
1538769495010358016,53.31
1538769495270742624,59.96
1538769495529257216,67.41
1538769495791358656,73.55
1538769496007167360,78.76
1538769496266751840,85.65
1538769496523092960,89.52
1538769496753476512,91.87
1538769496994405152,92.93
1538769497273170144,90.76
1538769497475814208,87.99
1538769497751898624,82.88
1538769497995934176,77.69
1538769498211492928,72.97
1538769498477071072,66.81
1538769498741315200,61.34
1538769498967912640,56.81
1538769499209805664,52.66
1538769499463881792,49.36
1538769499730759776,46.22
1538769499964704768,44.85
1538769500232640256,44.9
1538769500467100960,45.56
1538769500709064288,46.22
1538769500975886208,47.1
1538769501212889472,48.23
1538769501477846464,48.81
1538769501704948000,48.25
1538769501927642560,47.93
1538769502151500992,48.5
1538769502403227360,48.95
